162
160
156
157
156
156
155
158
158
161
162
161
161
160
160
163
169
172
172
166
160
151
137
116
93
87
86
91
93
90
89
92
95
98
100
100
100
101
97
97
97
97
96
98
99
99
101
106
107
107
107
108
108
108
106
104
103
106
104
102
102
101
102
100
101
97
99
100
101
104
102
99
93
88
82
78
78
79
81
84
85
80
79
80
74
72
66
58
55
56
54
52
52
48
47
49
45
50
64
109
135
135
131
112
64
38
34
34
30
30
31
31
34
39
39
37
34
38
55
87
88
75
58
49
55
53
50
49
161
159
156
156
156
156
156
158
158
160
161
161
160
161
165
171
173
169
163
156
145
127
102
87
85
90
92
92
91
90
90
92
96
99
100
100
101
98
99
97
95
96
98
98
99
102
103
105
104
105
107
108
108
106
105
106
105
105
104
102
102
101
102
103
102
96
97
98
100
103
100
93
91
89
79
75
76
77
78
81
81
78
78
75
73
70
61
58
58
57
53
52
51
49
51
50
48
53
61
88
127
141
144
134
114
82
60
56
44
41
39
37
36
35
35
34
33
33
62
87
95
106
94
70
61
56
53
52
162
160
158
156
157
158
159
159
160
162
161
161
162
167
171
169
163
157
149
135
113
90
84
89
91
92
93
93
91
90
92
94
98
101
101
99
101
99
99
96
95
95
97
98
99
100
102
101
104
104
105
106
104
105
106
104
105
102
101
101
100
100
102
105
102
96
96
98
99
101
97
90
86
82
77
76
77
77
76
78
79
78
77
80
73
70
68
63
62
61
57
54
50
50
48
47
45
45
52
68
103
136
151
151
146
143
136
126
119
110
108
98
87
77
68
67
55
50
67
91
108
117
102
89
74
60
54
50
158
156
156
157
157
158
158
159
161
162
163
166
170
169
164
157
150
138
118
95
83
84
89
92
92
92
93
92
90
89
94
96
98
100
100
100
99
97
97
96
95
96
96
98
99
99
97
98
102
101
101
103
102
101
102
101
102
101
100
99
97
100
101
102
100
94
93
94
94
93
89
83
82
81
76
73
74
72
73
72
74
75
75
76
73
69
69
66
64
63
57
52
46
48
49
48
44
40
45
55
79
112
139
152
164
169
171
169
165
166
163
162
155
150
144
141
138
137
133
131
140
137
123
113
100
91
91
78
158
156
156
157
157
158
158
159
161
164
169
168
165
159
151
140
123
99
82
82
83
87
88
89
90
91
91
90
87
89
92
95
97
98
99
99
100
98
98
97
95
94
98
99
101
102
101
100
100
101
100
99
100
99
98
100
99
99
95
98
97
99
100
99
97
92
88
89
89
87
84
81
77
74
72
69
67
65
63
63
66
68
68
68
63
64
64
62
63
59
57
57
65
73
73
62
53
49
47
56
72
94
116
142
158
164
169
171
172
174
173
174
173
172
167
169
177
176
178
176
174
172
165
160
159
176
186
181
156
154
155
155
155
156
157
160
164
168
166
159
152
144
132
110
87
76
79
82
85
87
86
86
86
88
90
87
84
84
87
90
95
94
97
97
99
99
96
97
97
96
102
104
104
108
108
106
104
103
101
97
95
92
91
93
94
93
91
91
92
93
93
91
88
83
79
78
78
77
74
67
64
64
63
60
56
54
50
50
55
64
72
69
66
70
69
70
78
80
80
88
101
104
98
90
85
78
68
61
61
72
81
102
119
133
140
137
140
144
147
154
155
156
156
161
170
173
181
184
183
178
179
176
186
204
203
200
155
154
153
153
154
154
158
164
168
167
161
154
146
134
121
108
104
105
108
108
109
108
108
106
106
105
108
105
103
101
102
103
104
104
108
111
111
109
107
108
108
111
113
114
118
118
118
117
116
114
111
108
103
100
99
100
99
100
97
97
96
96
95
94
91
84
81
79
78
77
72
65
66
64
63
61
59
55
49
48
57
74
89
97
98
93
91
93
100
99
96
93
102
104
103
108
100
85
73
57
50
46
48
51
54
59
54
50
52
59
70
74
78
89
101
102
116
130
139
147
156
155
157
158
171
198
200
196
154
154
154
156
159
160
165
168
168
166
160
153
145
137
137
139
139
137
137
138
139
138
138
137
135
135
136
136
136
133
132
132
132
133
134
136
134
133
133
136
137
137
137
137
140
141
139
140
139
137
135
134
132
131
130
130
131
129
128
130
130
128
128
127
127
123
123
121
120
120
117
114
112
113
111
110
111
108
106
105
112
123
131
135
136
132
133
135
137
134
131
126
127
128
129
131
126
119
112
91
80
78
76
76
73
65
58
58
54
51
51
51
55
59
62
64
62
66
71
82
92
97
101
111
122
145
164
160
157
155
156
161
165
166
167
168
168
165
160
155
152
152
156
157
159
157
158
157
157
157
155
154
153
153
153
154
153
153
152
152
152
152
151
154
155
154
154
157
157
157
156
156
157
158
158
156
156
157
157
156
156
153
153
153
154
153
152
153
154
153
153
151
152
151
151
151
151
152
151
150
149
149
149
149
148
147
146
146
147
152
155
157
156
155
157
158
157
156
155
150
145
146
146
148
150
148
144
135
130
131
131
131
133
133
132
132
130
128
125
123
122
120
118
115
111
109
109
109
108
108
107
109
110
113
114
115
163
161
164
167
167
165
166
165
163
161
160
162
163
164
165
166
166
167
168
167
166
167
165
164
163
164
162
162
162
163
163
165
165
164
162
164
166
168
167
169
168
168
168
169
170
170
171
169
168
169
170
169
169
168
168
168
167
168
168
169
168
167
168
168
168
169
170
170
169
169
170
168
168
168
168
166
165
165
166
167
166
165
166
165
166
166
167
170
170
168
167
165
163
164
165
165
165
165
163
162
161
161
163
163
164
165
163
164
166
166
166
166
163
162
160
158
155
155
154
153
152
152
149
147
146
147
147
148
167
169
170
169
167
165
162
159
159
158
160
162
163
164
165
166
167
168
168
169
168
169
168
168
167
166
165
165
165
165
167
168
169
168
168
169
172
174
174
172
172
172
173
172
174
173
172
172
171
172
172
173
173
173
172
173
173
173
174
174
173
175
175
175
176
176
177
178
178
178
178
178
177
177
177
174
174
174
174
174
173
173
170
169
170
171
172
175
176
177
177
178
176
175
176
174
173
174
172
171
170
170
174
176
178
177
178
179
179
179
177
178
177
176
175
174
172
171
172
173
172
172
171
171
172
172
171
170
173
173
171
169
165
162
160
158
158
160
160
160
161
163
164
164
164
165
165
166
168
167
166
166
166
166
165
164
163
163
165
167
168
168
170
172
173
175
173
172
171
171
173
173
174
173
173
172
171
172
172
173
173
173
174
173
174
174
175
175
175
176
176
175
177
177
177
179
180
181
181
181
180
179
179
176
172
173
176
175
174
174
172
173
171
174
174
177
178
178
179
179
178
176
176
175
173
173
171
170
171
170
173
175
177
177
177
178
178
178
175
176
178
177
175
176
175
175
176
177
177
176
178
178
179
179
177
179
171
171
170
166
163
161
161
162
162
161
161
162
163
165
165
164
164
164
163
163
163
164
164
164
164
164
162
164
164
163
164
165
166
168
169
172
173
173
173
172
171
172
172
172
173
174
173
172
171
172
173
174
175
175
174
174
175
175
175
176
176
176
177
177
177
177
179
181
181
183
183
183
182
182
180
177
177
176
177
178
177
177
177
178
178
177
179
179
181
181
181
180
179
178
177
178
177
174
173
171
171
172
173
175
178
178
177
178
179
180
173
176
178
177
177
177
177
176
175
176
178
179
180
181
181
181
179
180
164
163
160
157
154
156
156
159
158
156
156
157
157
158
159
159
158
155
155
156
155
154
154
156
155
155
156
158
158
156
156
156
159
161
163
166
167
166
166
165
165
166
166
168
168
168
168
167
168
168
168
168
170
171
170
170
171
172
171
171
172
171
172
174
172
171
174
175
176
179
180
179
178
178
177
174
173
173
175
177
177
177
179
178
179
179
180
179
179
178
179
179
178
178
177
178
177
175
173
177
178
173
175
176
178
177
179
181
180
180
175
177
179
178
178
178
179
180
181
183
183
183
182
184
184
185
182
182
148
143
139
138
139
141
141
141
140
139
139
141
141
140
142
143
141
138
139
140
138
136
136
136
136
136
138
138
139
138
137
138
141
142
143
144
145
144
145
146
147
148
149
150
150
150
151
151
151
151
152
152
152
153
153
154
154
153
154
154
154
155
155
156
157
154
154
155
157
159
161
160
160
160
159
159
156
157
159
160
160
161
162
163
163
165
165
165
162
166
167
163
164
163
164
165
163
159
157
176
169
161
158
159
161
163
167
168
167
168
164
166
168
165
167
168
170
173
175
174
175
175
176
176
175
172
171
170
118
116
115
114
116
120
114
114
114
113
111
113
114
113
112
113
112
111
110
109
108
110
109
108
110
110
109
110
113
110
108
107
109
110
112
112
112
113
114
113
114
116
116
115
116
117
116
117
118
120
121
120
121
122
122
123
125
124
124
123
123
123
124
126
128
127
125
125
127
129
131
131
131
131
130
132
132
131
131
132
133
134
135
136
136
137
137
135
132
143
145
134
138
136
136
137
132
123
158
158
132
135
158
162
158
147
139
146
148
147
147
149
151
152
148
145
148
141
133
129
125
124
131
141
124
107
122
98
94
94
92
93
93
93
89
91
91
87
86
87
88
85
82
83
80
79
76
78
79
82
80
80
81
82
82
82
82
77
76
78
80
81
80
81
82
81
82
82
82
83
81
80
79
79
80
82
81
81
79
79
80
79
81
82
85
86
85
84
85
84
83
85
86
85
83
88
91
91
91
90
91
89
90
89
87
85
87
88
100
92
91
93
93
91
91
86
108
126
88
85
89
91
89
86
77
127
150
82
93
145
178
153
136
139
124
136
129
110
118
122
118
132
135
123
115
104
107
115
112
111
93
71
64
60
65
61
96
94
91
91
90
92
88
89
92
88
87
87
87
86
83
81
78
77
77
79
78
80
79
81
79
77
77
79
78
75
73
75
77
79
79
80
78
77
80
80
79
81
77
75
75
76
77
76
76
76
74
75
73
73
74
74
74
78
80
78
76
78
79
80
76
74
76
80
84
85
82
83
81
80
81
80
75
72
73
86
93
75
77
77
74
73
70
94
124
81
66
69
69
69
70
62
98
160
78
76
130
124
96
110
69
84
80
76
52
53
64
61
53
67
77
80
87
92
80
83
77
68
58
49
56
53
48
45
103
101
99
99
99
98
97
98
98
97
97
97
95
94
94
89
87
89
89
88
90
90
91
93
92
89
90
88
88
85
82
83
87
89
88
92
91
89
91
92
91
91
89
88
86
87
88
88
86
89
87
85
84
83
86
85
84
88
92
89
87
88
88
89
86
85
90
92
94
97
95
95
93
91
93
96
116
109
89
119
97
89
91
90
86
88
112
119
85
81
111
128
119
100
94
97
131
88
75
120
112
69
61
43
41
40
43
45
50
58
49
46
51
51
54
56
59
56
49
43
47
44
43
47
49
52
50
49
106
106
103
103
102
104
103
103
102
102
104
101
101
99
97
94
93
93
95
97
95
94
96
98
97
96
95
93
94
90
92
93
94
95
95
95
94
95
95
96
97
96
95
96
94
95
95
94
93
94
92
92
90
90
94
94
93
96
96
96
95
94
95
96
94
91
97
100
103
105
104
103
100
107
106
101
100
128
115
114
98
100
98
96
103
124
111
90
106
130
126
105
104
107
95
77
102
106
88
67
38
40
47
45
43
44
44
49
55
46
45
48
46
41
42
43
45
47
47
50
48
50
51
50
50
48
52
53
107
105
104
106
105
107
105
106
106
103
103
104
104
104
99
99
95
100
99
100
99
98
96
99
100
99
96
98
94
94
96
98
98
100
100
99
98
97
98
100
99
99
97
98
97
97
97
96
96
95
95
95
96
96
97
97
99
101
99
100
100
100
100
102
100
96
99
104
108
111
109
109
109
126
110
105
120
131
116
109
110
111
114
118
134
115
105
132
139
115
108
98
83
78
64
49
51
49
38
37
41
40
46
53
44
47
55
56
48
45
46
47
45
47
59
51
53
44
47
58
48
51
53
49
48
52
58
56
108
105
104
107
107
104
105
106
106
102
103
105
105
102
100
98
96
101
100
99
99
100
101
98
100
99
99
99
98
96
99
99
100
101
101
100
100
99
100
99
99
98
97
97
99
99
99
98
98
96
96
98
96
98
99
99
101
103
101
102
101
103
104
102
102
100
98
103
109
112
107
108
120
135
117
113
141
126
127
116
114
104
112
133
114
110
108
109
96
89
70
54
67
83
68
70
74
64
59
45
42
37
45
55
57
68
56
50
45
45
48
49
47
65
64
50
45
42
52
53
48
53
57
60
61
58
58
65
107
105
105
105
104
104
104
105
104
102
103
103
102
103
101
99
98
100
101
99
99
100
102
99
98
100
102
101
100
96
98
100
101
102
101
101
99
99
98
98
98
98
95
96
99
98
98
97
98
98
96
97
96
98
100
100
102
103
102
103
102
102
101
101
100
98
98
102
109
117
121
112
130
137
113
108
123
96
96
79
75
82
59
59
66
68
56
53
64
74
91
101
86
83
89
88
69
72
80
72
62
79
61
69
60
50
46
45
45
44
55
51
53
73
49
46
46
56
53
45
47
50
52
57
58
56
63
65
109
106
104
103
104
103
103
103
102
102
103
103
104
104
101
100
100
100
99
100
100
104
102
100
99
99
99
101
101
95
98
101
102
105
101
101
98
98
99
99
98
98
98
98
100
100
101
101
99
100
97
97
97
97
100
101
103
103
104
105
103
102
101
100
99
97
99
107
70
56
141
135
132
131
87
119
68
68
74
78
79
84
77
70
79
98
84
67
59
88
88
75
58
52
54
56
60
63
59
64
94
111
59
55
55
51
49
50
41
46
70
55
62
53
46
49
59
62
54
52
54
55
53
58
58
61
74
72
109
106
103
103
103
103
102
103
102
103
102
102
103
104
104
103
102
101
100
101
101
100
100
100
102
102
99
100
100
99
99
101
101
101
100
99
98
98
99
98
98
98
98
98
99
98
99
98
99
97
97
99
98
98
99
99
101
100
102
103
102
101
102
99
98
96
95
99
59
106
153
128
146
95
91
102
91
117
92
97
113
100
72
78
112
96
84
65
50
44
42
41
43
44
50
61
64
63
59
47
32
79
88
59
46
48
44
43
49
89
53
49
49
45
50
59
57
50
50
51
53
53
63
70
73
64
60
66
106
106
106
104
104
105
106
105
105
104
103
105
106
107
106
105
104
102
101
103
103
102
102
103
104
102
101
103
106
102
101
102
105
103
101
101
100
99
99
100
100
100
98
98
99
99
100
99
98
98
97
98
99
98
98
101
100
100
103
103
103
103
102
101
98
88
85
66
94
154
136
100
122
71
89
94
120
96
95
99
97
78
54
104
73
49
56
65
59
50
66
74
74
77
72
67
58
57
72
69
59
101
81
53
52
60
67
91
122
95
74
68
60
61
64
62
60
60
56
52
48
45
45
47
49
61
64
65
112
111
111
111
112
112
110
109
110
110
109
111
113
112
111
109
107
107
107
106
107
107
108
105
105
106
106
107
108
105
105
105
107
109
106
105
103
102
103
102
102
100
99
100
100
101
99
99
99
98
99
101
102
102
102
104
100
103
105
107
107
106
106
104
97
111
114
70
126
142
87
83
117
70
78
93
95
82
80
76
52
58
99
78
59
70
65
68
69
79
78
62
61
52
52
50
48
48
68
91
106
94
61
71
95
102
107
108
96
78
85
76
64
60
60
54
53
51
55
60
48
55
57
56
53
54
70
107
117
117
115
115
115
114
113
114
114
114
114
114
114
117
115
113
109
110
109
110
111
111
109
109
109
110
109
110
109
107
106
109
110
111
109
107
106
106
104
103
100
100
98
96
96
98
97
97
100
101
104
104
105
105
106
105
117
123
116
112
112
113
111
106
118
184
184
131
168
145
78
88
72
58
63
97
65
64
80
71
96
113
75
49
54
69
64
55
67
70
76
61
57
61
64
49
43
44
50
66
87
77
65
60
66
59
52
41
41
42
48
52
56
53
58
71
66
65
64
60
61
78
82
79
83
98
94
78
120
121
120
119
119
119
120
119
118
118
119
119
119
120
118
117
115
115
113
114
114
114
113
114
114
114
113
114
112
109
111
112
113
114
111
106
102
99
98
97
91
87
83
82
82
87
89
95
99
102
105
106
109
111
113
111
128
117
115
117
116
117
115
109
144
169
154
164
193
123
76
57
57
64
93
74
74
94
98
99
92
79
79
72
68
68
78
77
80
93
117
142
140
115
116
122
113
105
86
53
62
60
83
47
47
55
64
64
50
50
53
56
47
56
63
58
61
63
59
64
59
60
64
54
44
45
48
53
123
124
123
123
122
121
121
122
122
120
120
120
122
122
120
118
116
113
115
116
115
115
116
117
118
117
116
115
114
110
112
113
107
105
98
95
98
107
112
113
118
129
135
133
128
112
92
82
81
89
101
105
110
112
114
115
114
116
118
116
119
119
119
130
144
139
142
204
173
55
45
49
70
82
71
55
77
96
84
62
58
72
79
82
71
76
92
117
133
140
128
117
126
101
84
108
136
136
124
92
43
75
88
55
59
40
38
51
59
66
64
53
55
52
56
46
48
58
57
59
61
70
72
71
64
70
79
79
126
125
124
124
124
123
122
123
122
119
121
122
121
121
122
121
117
116
115
114
116
116
116
116
116
118
118
114
109
100
102
112
122
140
157
176
195
204
206
202
200
201
208
211
212
207
198
174
135
104
86
95
104
108
109
112
114
116
120
115
119
116
128
154
154
152
152
150
80
43
46
73
92
93
106
85
95
109
93
98
96
95
100
101
77
67
82
102
91
67
96
107
109
109
62
60
85
115
125
119
109
77
48
50
68
75
49
54
55
48
46
52
57
61
58
52
44
46
54
46
59
75
98
113
97
90
87
81
128
126
126
127
126
125
126
125
124
123
123
124
125
125
124
120
118
118
118
118
120
119
121
119
119
119
114
108
118
147
178
196
203
205
192
184
184
183
180
178
176
182
190
194
196
199
205
206
209
205
162
100
86
92
96
103
110
116
120
113
118
152
152
146
154
148
131
72
58
92
57
88
109
113
116
113
125
122
130
123
116
110
102
109
99
86
76
90
102
89
89
123
134
128
106
85
73
69
94
98
111
85
108
91
53
62
79
56
48
40
44
45
40
48
50
40
48
51
45
45
44
44
61
87
108
112
87
67
131
130
128
127
128
127
128
127
126
124
124
125
126
127
124
122
123
120
120
120
121
121
121
121
120
119
131
159
185
183
174
162
155
136
130
136
144
148
154
161
160
164
173
174
186
197
200
200
195
201
216
199
149
129
129
116
102
108
116
114
132
150
125
148
158
133
116
51
49
100
115
97
101
118
77
74
95
107
93
92
112
131
124
101
86
73
85
75
98
105
80
83
110
121
132
110
101
67
65
107
98
114
66
74
90
73
79
52
49
55
57
53
52
55
60
60
49
53
47
47
55
53
49
44
44
84
114
95
130
130
129
128
129
129
127
127
128
126
124
125
125
126
123
124
123
120
120
120
122
121
121
122
125
130
140
133
116
108
109
100
102
102
109
113
118
129
139
148
150
152
162
162
167
169
171
173
188
192
189
201
211
219
219
215
194
147
120
123
127
70
45
110
143
78
58
39
87
90
125
85
99
71
60
57
57
61
59
78
96
103
128
130
119
101
69
94
93
92
109
89
98
100
124
123
111
99
117
139
112
76
65
63
66
81
65
62
52
50
51
57
56
69
72
57
61
49
55
50
61
81
75
84
79
52
44
86
134
131
130
129
130
130
129
128
128
126
126
127
127
125
125
123
124
124
122
123
122
123
123
126
125
117
102
100
103
102
100
100
101
96
100
105
104
119
131
138
139
141
148
155
143
130
124
134
154
171
168
186
197
205
212
198
185
192
175
118
125
47
38
91
127
61
45
77
95
74
102
85
57
48
46
51
62
55
43
51
56
57
76
114
129
126
100
98
100
70
112
131
105
85
107
135
109
115
139
102
78
74
71
73
74
86
85
80
69
62
74
84
83
67
44
57
76
45
51
67
60
58
47
65
102
99
90
95
131
130
130
131
131
130
129
127
129
128
125
125
126
128
126
125
125
125
124
121
121
125
125
117
113
106
104
107
104
106
106
105
106
102
105
105
106
110
115
125
132
136
146
154
148
131
131
140
139
161
175
171
168
178
140
111
110
116
124
117
141
107
122
116
59
37
77
73
51
38
54
41
38
45
49
53
53
50
51
57
54
47
36
57
84
126
134
92
75
99
111
112
111
121
124
123
119
111
91
87
107
92
93
87
74
96
107
101
88
67
57
51
61
82
89
100
103
77
47
54
60
72
81
52
39
56
76
78
129
130
131
131
131
130
129
127
127
126
125
125
128
129
127
126
125
124
123
123
127
126
113
107
114
112
108
109
109
110
108
110
101
107
105
104
105
105
106
108
107
118
128
138
143
126
138
147
143
132
116
126
132
126
110
106
118
113
115
127
120
157
143
104
53
84
69
58
60
70
58
54
51
44
49
49
41
37
47
50
64
77
90
81
100
88
73
91
93
133
143
109
93
117
134
143
150
133
103
99
105
117
99
97
94
80
99
98
111
112
61
45
79
63
70
111
129
115
80
45
64
63
77
92
76
52
54
44
130
131
130
130
132
130
129
129
127
125
125
128
129
128
127
126
123
124
129
137
126
110
107
112
112
114
115
111
112
114
115
110
105
114
102
103
108
108
105
95
100
107
100
113
114
110
123
129
115
108
123
128
120
123
120
113
109
118
131
135
129
121
93
68
70
82
68
68
79
81
75
79
89
52
49
47
41
43
45
41
38
68
137
107
68
38
65
130
139
146
144
124
113
90
95
113
137
134
125
114
116
126
128
110
109
97
80
79
63
88
111
96
91
113
62
59
95
138
135
87
68
74
61
66
85
97
79
66
130
129
129
129
131
129
129
129
127
125
127
128
129
128
127
124
123
128
140
125
110
106
109
113
111
111
113
111
112
113
113
108
116
112
107
108
111
111
107
106
106
103
117
124
118
118
114
105
113
128
130
130
114
110
121
114
114
124
130
128
124
100
71
59
88
88
53
64
81
74
91
75
91
79
56
52
54
71
73
73
52
33
38
58
47
82
125
136
133
129
139
148
158
140
104
92
140
87
92
98
121
141
137
139
123
107
99
94
88
105
133
126
109
120
78
42
61
103
135
132
85
98
94
96
71
62
70
71
133
132
130
131
130
130
129
129
130
128
128
129
130
129
126
130
149
123
111
110
109
111
113
114
115
113
113
114
111
114
116
116
122
116
116
109
115
112
114
117
106
125
137
127
123
118
108
118
134
137
126
119
116
120
117
118
131
129
132
117
99
64
67
91
97
76
63
84
99
93
85
118
101
95
60
59
76
99
79
99
56
47
52
51
56
105
172
193
200
176
167
175
203
159
91
67
120
134
90
131
127
124
147
130
128
124
144
139
141
142
135
124
114
120
116
71
62
95
106
132
106
106
136
118
110
81
62
49
132
133
130
129
132
130
130
130
130
128
128
128
129
128
125
132
112
110
115
108
112
116
115
118
118
115
113
117
117
118
117
124
125
118
115
118
119
121
117
110
128
141
129
132
120
107
124
134
136
128
113
121
130
121
113
128
125
129
104
67
62
85
84
69
72
87
104
107
103
119
104
96
112
81
58
53
57
66
115
86
68
110
81
64
113
119
180
211
180
118
140
179
124
54
60
53
48
129
156
133
131
92
75
119
146
153
150
141
144
136
109
120
109
77
76
76
68
103
97
101
119
71
78
108
92
97
94
72
134
134
133
132
132
131
129
131
129
128
127
126
128
125
129
143
121
119
112
111
118
118
120
118
115
116
114
119
120
119
125
130
121
119
125
119
118
124
108
125
143
136
135
124
114
129
138
136
124
112
126
131
124
119
134
120
100
107
67
62
75
57
48
79
97
109
98
105
119
120
126
98
122
46
39
47
65
98
113
114
97
71
59
123
156
165
187
134
97
137
175
97
43
48
51
52
48
52
123
108
70
99
107
99
116
125
97
121
118
125
94
76
129
101
65
74
92
72
93
106
70
72
58
63
65
63
104
77
134
134
133
133
133
131
129
130
131
127
129
131
128
127
137
142
123
120
114
119
118
121
118
114
117
119
120
123
126
128
131
124
120
126
126
118
126
117
130
144
133
135
126
118
134
138
137
128
116
124
127
131
117
130
135
117
84
76
55
45
40
59
83
67
52
52
48
46
64
97
98
97
96
108
108
101
130
151
89
73
45
48
88
140
182
178
117
92
132
156
78
47
51
53
54
54
52
44
51
100
112
74
104
139
86
42
49
46
98
136
129
51
71
123
124
101
81
43
43
52
47
44
43
45
42
43
70
100
133
134
133
134
134
133
132
130
129
129
129
130
130
127
142
133
121
122
119
116
118
122
118
112
117
120
123
125
129
132
126
118
122
128
120
122
116
125
142
136
137
125
122
137
140
135
128
121
127
126
121
124
125
134
129
114
71
56
78
76
92
98
96
81
62
56
47
48
50
54
53
49
76
121
134
121
111
149
91
43
37
52
120
172
154
101
97
141
135
62
49
52
50
51
50
50
52
49
51
45
73
114
112
91
115
101
105
95
123
155
143
65
65
93
154
107
73
50
50
46
46
46
45
47
49
42
36
70
134
133
133
132
134
131
131
130
130
130
128
131
131
128
137
125
123
124
125
122
122
120
114
114
121
129
130
129
134
137
123
124
134
126
119
116
132
150
145
142
129
121
138
143
137
130
121
126
129
125
121
122
127
115
101
93
67
46
44
56
49
40
38
54
62
56
43
47
45
42
46
46
55
62
76
131
117
64
44
35
27
53
136
117
87
109
141
93
46
49
53
54
52
54
57
58
65
68
71
66
61
59
77
105
133
159
181
156
144
88
109
71
42
65
70
45
47
53
44
43
46
45
44
45
43
48
53
74
132
132
131
132
132
130
129
129
130
131
129
129
128
128
125
121
121
121
125
126
122
118
118
125
127
130
133
138
136
132
120
131
133
124
113
136
149
143
143
135
121
140
140
138
130
125
129
133
127
122
130
129
123
116
65
45
57
50
43
48
48
51
56
62
67
80
68
51
44
45
47
46
48
45
38
50
105
73
37
54
100
127
107
107
132
123
56
39
51
54
58
58
57
60
62
66
72
72
69
64
60
54
46
43
43
53
53
42
92
64
94
75
47
52
48
52
44
46
47
42
43
39
44
43
45
56
74
86
134
132
131
132
131
130
130
128
128
129
128
127
126
128
131
126
128
129
128
124
122
119
124
128
128
131
142
139
137
131
132
128
129
111
127
150
150
142
136
121
139
146
143
134
123
132
135
128
121
132
133
123
113
99
64
73
80
74
74
48
72
59
62
48
46
55
76
78
51
47
47
44
45
46
41
35
29
23
55
145
182
167
138
173
107
40
39
44
44
45
53
51
51
49
48
49
46
43
46
45
42
46
46
49
41
37
38
44
42
54
79
95
58
52
47
45
48
46
44
39
37
38
44
43
56
76
91
93
133
132
132
132
132
131
132
132
130
128
129
127
126
141
142
135
133
132
128
130
125
127
127
129
131
138
141
132
133
132
134
126
112
125
157
148
141
143
127
144
144
143
137
125
130
133
129
128
131
129
128
110
78
71
72
51
42
48
58
73
85
56
64
60
41
38
42
46
53
47
49
50
47
46
37
35
54
92
114
137
182
189
164
86
37
57
78
62
54
48
52
52
52
53
55
58
61
62
67
70
69
73
70
71
67
63
64
71
70
58
65
104
59
57
56
51
46
42
41
40
45
52
54
50
78
97
104
106
134
133
132
131
130
131
135
134
132
129
129
130
134
145
142
132
128
129
134
128
126
130
132
137
137
140
135
134
135
137
126
111
125
160
156
147
142
132
146
151
146
139
129
133
135
131
128
140
133
107
91
95
72
60
47
45
55
59
61
75
56
44
58
83
88
51
43
45
47
51
48
49
43
41
63
102
123
123
131
138
181
132
47
45
49
54
50
50
53
54
53
52
53
52
50
52
52
50
53
52
52
56
56
60
59
62
71
72
64
59
62
108
63
56
50
46
45
42
40
45
59
77
63
59
94
109
111
113
136
133
131
132
134
131
131
132
129
127
128
127
143
151
142
132
132
133
137
134
132
137
138
139
135
139
142
140
139
127
114
121
162
159
149
148
135
146
152
146
142
134
132
143
133
132
140
137
142
118
75
81
78
55
45
48
56
54
55
46
43
48
45
38
67
99
51
48
49
42
36
39
66
108
128
121
135
170
193
168
110
34
40
53
49
49
48
46
49
48
54
57
52
52
54
55
52
49
51
49
50
54
54
55
53
52
54
56
56
58
67
82
78
50
48
41
42
45
52
68
79
94
57
74
107
116
116
118
135
134
132
132
133
131
128
128
127
126
128
126
144
144
146
141
136
137
134
137
133
137
136
142
141
140
141
141
131
111
120
164
169
155
148
141
148
151
154
147
143
140
151
135
138
145
134
116
122
113
76
75
93
80
66
53
49
52
52
48
50
54
41
42
42
71
56
40
36
31
51
103
126
125
144
175
205
205
129
82
38
44
62
57
55
55
56
57
59
58
58
61
55
48
49
52
53
53
52
49
48
50
53
52
48
47
48
51
55
57
56
56
61
53
46
48
54
62
75
87
100
97
54
88
112
118
120
122
135
133
130
132
133
131
126
124
124
125
128
130
148
145
150
143
138
132
135
136
134
135
138
144
143
139
138
133
124
117
157
178
165
153
148
152
158
152
141
151
145
150
139
142
146
136
119
125
120
74
75
87
81
74
76
73
55
52
55
61
64
63
70
45
44
47
54
38
46
86
125
121
138
167
192
208
186
85
32
34
38
46
53
58
63
69
73
69
62
62
62
61
58
55
50
49
50
49
52
55
56
55
55
55
52
51
53
52
51
55
55
53
46
45
49
61
75
86
100
112
120
79
60
104
117
118
120
123
135
134
131
132
132
130
125
122
123
124
124
134
148
152
149
151
144
138
138
136
134
136
141
146
142
136
133
127
115
147
179
173
165
163
154
164
163
151
145
151
154
143
142
153
142
117
130
132
85
70
81
56
54
64
81
73
62
56
62
62
53
58
80
71
40
35
44
70
113
123
140
167
184
197
195
137
52
29
37
40
43
44
42
48
48
50
53
58
64
66
67
63
61
58
57
53
49
49
50
50
57
62
63
66
64
68
62
62
54
51
49
50
54
63
72
82
98
110
115
119
112
51
84
116
123
124
123
125
132
132
131
131
132
129
126
123
121
122
124
132
160
165
154
152
148
141
141
140
141
140
143
140
137
133
131
116
133
176
180
165
164
165
171
165
161
155
155
146
149
147
160
138
126
136
128
104
67
78
64
39
45
55
58
65
62
54
50
57
74
75
68
56
36
56
103
110
143
170
173
186
201
181
87
39
44
50
55
59
57
59
62
62
55
50
49
47
49
51
54
55
57
58
56
57
54
51
53
50
49
54
53
57
54
55
49
47
54
54
58
68
80
88
101
110
118
118
119
119
66
57
106
122
124
126
127
127
130
129
129
130
132
129
127
124
122
123
121
137
165
165
159
161
155
150
147
147
140
139
146
140
140
138
131
129
172
181
167
169
168
171
176
174
158
170
167
151
147
160
153
115
137
124
115
83
80
61
52
70
74
64
60
67
83
91
71
55
64
63
43
41
93
127
139
154
171
174
185
204
151
56
41
53
60
68
79
87
91
99
106
106
104
99
93
87
79
72
73
64
53
52
55
57
60
57
54
51
53
51
53
54
46
50
51
50
55
69
80
93
102
110
116
117
117
121
118
72
43
93
118
124
126
126
125
126
131
130
128
130
130
130
128
127
125
124
119
155
172
170
165
163
157
160
154
150
150
150
147
144
145
140
130
163
188
187
172
170
178
177
176
170
170
172
166
151
162
157
140
128
123
113
119
84
66
52
86
93
78
89
74
47
66
90
66
76
59
40
70
119
134
160
177
165
180
194
200
133
64
69
81
80
77
76
76
75
81
88
89
94
97
95
91
85
82
78
76
75
66
61
58
58
61
58
60
60
57
59
66
68
61
56
59
70
84
107
115
121
123
123
125
125
123
108
64
46
85
115
124
127
128
127
127
128
132
132
131
130
130
130
127
126
126
123
120
159
179
179
169
167
169
170
162
158
158
158
154
153
156
143
156
189
185
176
178
174
182
181
173
166
178
168
153
171
159
157
137
118
110
109
99
77
54
57
44
38
56
79
111
108
85
83
52
26
44
97
131
145
172
175
175
182
200
196
123
84
100
109
114
113
107
106
103
104
105
108
112
113
111
105
96
89
85
76
69
65
62
59
60
62
64
60
58
60
67
67
71
75
81
90
99
101
115
126
126
127
129
128
126
121
91
50
51
90
121
125
126
128
129
129
130
128
133
132
131
131
132
129
126
125
124
120
119
156
179
180
174
169
173
175
167
169
169
168
164
168
165
148
177
192
186
176
175
180
176
184
171
171
172
162
169
172
160
160
144
106
94
115
84
57
49
41
50
61
62
43
57
83
66
93
94
74
109
120
146
175
174
179
189
201
192
124
95
114
119
122
124
123
122
122
119
121
120
119
120
123
122
120
118
113
108
101
90
79
69
64
63
59
58
52
53
57
62
72
89
106
119
120
109
111
125
125
126
129
125
113
91
67
55
75
108
128
129
129
130
128
128
131
131
130
132
129
129
130
129
128
128
125
124
121
117
155
184
175
175
177
177
177
175
180
183
180
176
175
148
179
194
187
189
182
175
181
182
177
180
178
162
166
178
166
170
159
152
108
78
97
67
51
52
78
87
76
50
47
50
60
33
26
76
129
115
160
175
179
193
198
203
195
132
111
125
128
128
128
128
130
130
128
127
127
126
125
125
126
127
128
127
126
122
115
108
97
83
64
63
72
70
58
54
52
52
53
55
67
79
85
88
98
101
94
86
82
72
65
69
80
102
123
132
134
132
133
132
130
129
132
132
132
132
131
130
131
131
129
127
126
124
122
116
148
183
172
176
180
185
179
181
184
185
182
180
161
165
198
199
189
185
182
181
178
188
180
180
175
165
174
167
168
166
152
140
113
85
90
63
75
108
90
55
53
56
49
44
34
32
90
134
133
167
176
185
196
197
196
193
134
118
133
139
139
138
137
134
135
134
132
132
130
129
129
128
127
129
129
129
130
125
119
112
105
97
78
49
54
74
78
79
75
69
70
64
55
51
46
50
53
58
64
67
76
87
98
111
126
132
136
136
135
135
136
135
133
134
132
131
131
134
133
131
134
134
132
128
128
126
125
119
133
182
179
178
183
185
182
183
186
186
186
178
161
194
194
193
193
179
185
188
190
184
183
177
160
175
173
167
169
164
154
136
154
157
110
85
113
103
56
51
60
70
49
38
36
102
136
138
165
170
183
185
173
184
181
116
113
127
137
148
151
149
147
144
143
140
137
136
135
135
134
131
132
132
132
130
127
125
122
117
110
107
95
68
47
59
86
99
103
101
99
100
103
96
92
94
95
99
102
107
114
122
127
132
135
135
135
136
136
138
137
137
134
136
134
134
133
134
133
131
134
136
135
130
129
129
127
125
122
177
184
183
185
184
183
187
185
187
191
167
191
203
196
192
188
182
187
188
191
184
180
171
177
173
173
174
165
163
162
120
154
161
125
111
98
54
64
74
54
67
40
44
113
133
148
169
160
163
160
156
173
179
98
74
112
140
143
150
156
157
154
150
148
148
145
142
142
140
139
136
139
138
137
136
131
129
124
122
117
114
105
88
60
64
106
121
121
115
116
118
121
114
118
121
123
125
124
127
131
133
135
137
136
135
136
137
140
140
138
137
137
136
135
136
137
132
130
130
131
133
134
131
129
129
128
126
117
157
190
186
185
187
188
191
187
187
178
176
206
202
196
190
187
192
192
191
186
186
171
172
177
176
173
177
168
162
165
125
120
134
100
96
60
66
104
76
68
74
57
100
123
150
178
176
171
165
165
182
188
103
58
50
83
133
144
150
162
165
163
158
153
154
151
149
145
144
145
142
141
140
140
137
136
134
128
127
124
124
117
104
82
72
119
129
124
120
119
125
116
125
131
129
131
132
131
132
134
136
140
139
139
139
138
138
138
138
139
139
136
135
137
136
136
133
132
130
131
131
131
131
130
129
131
129
120
135
191
191
189
188
191
191
191
190
175
199
203
206
199
190
190
198
196
192
187
178
174
184
175
176
174
173
165
167
155
164
130
116
70
94
87
95
103
77
66
75
94
102
146
176
179
188
187
188
193
193
131
74
49
54
59
100
140
149
163
169
171
170
160
159
156
151
150
149
148
145
142
140
140
141
141
138
134
131
130
128
128
122
101
80
127
126
125
124
126
120
122
133
133
128
131
135
135
133
135
139
140
141
141
142
140
139
140
139
140
139
137
139
137
135
133
137
134
131
130
131
131
131
132
132
131
130
123
119
177
198
192
188
191
193
193
186
187
211
203
202
198
190
194
198
195
194
188
176
183
183
181
174
175
168
165
160
154
166
140
104
74
102
96
82
63
78
97
94
82
126
162
162
171
180
185
187
195
152
112
71
49
78
108
106
131
146
163
175
176
176
170
165
159
153
151
152
149
146
144
141
139
137
144
147
142
137
133
134
133
129
110
92
132
128
125
128
126
124
134
132
133
135
136
137
138
139
139
139
142
143
143
144
141
140
140
139
140
139
140
141
138
140
136
129
130
131
131
132
131
132
131
130
130
127
126
117
142
196
194
194
194
196
196
183
203
209
208
201
199
196
199
196
196
195
186
187
190
183
178
174
170
170
165
161
164
162
149
91
93
81
86
59
63
81
115
120
118
153
144
147
153
144
157
183
154
133
122
63
48
66
88
124
118
140
160
173
177
180
177
172
162
156
155
152
151
150
150
144
140
140
144
145
146
141
138
137
136
135
122
104
138
133
130
128
129
137
138
138
135
135
138
137
139
142
140
141
141
143
144
141
141
143
142
141
142
142
141
141
140
140
139
132
129
130
132
132
131
129
128
129
127
128
127
122
115
170
201
197
197
197
193
191
210
207
208
197
198
204
203
199
196
190
190
192
186
185
178
179
174
168
167
161
166
159
151
105
74
64
57
45
55
92
111
131
153
180
179
169
170
172
178
163
101
147
121
57
44
58
75
134
121
138
162
173
178
180
178
172
166
161
157
156
155
153
154
150
143
137
113
134
146
144
142
138
139
140
130
115
135
135
136
134
137
137
139
140
140
139
138
137
137
138
139
142
140
140
142
142
143
145
144
145
143
143
142
142
141
141
141
131
130
129
129
128
128
127
127
127
127
127
127
124
118
124
189
199
197
195
189
201
209
204
202
198
199
204
205
203
197
189
198
199
192
185
178
186
180
172
161
164
166
160
151
101
68
79
77
80
126
141
129
169
172
182
184
183
192
192
174
139
102
146
109
52
69
83
126
178
134
143
168
172
176
174
174
171
168
163
160
158
157
155
155
151
146
133
95
123
135
139
139
139
142
146
138
125
137
138
137
138
142
140
140
140
141
140
136
137
136
136
138
137
138
140
142
141
141
143
143
142
143
145
144
142
141
142
141
129
129
128
129
129
129
127
128
128
129
127
129
129
123
113
145
196
195
196
191
209
209
207
199
203
201
204
204
203
198
194
197
197
196
187
183
188
181
177
166
167
165
166
143
87
49
45
30
92
145
141
190
185
179
188
189
182
183
168
157
151
109
134
139
58
122
191
208
194
129
149
169
172
177
173
171
168
165
162
160
158
158
158
158
152
146
138
102
113
127
132
135
139
145
148
144
135
141
141
139
140
142
141
140
139
141
141
139
136
139
135
134
135
137
138
140
140
139
141
143
144
144
146
146
145
144
144
144
131
129
128
128
129
127
127
128
127
127
129
130
130
126
122
113
165
203
196
197
211
208
206
202
202
204
204
205
202
195
200
198
195
194
192
188
178
184
175
173
172
166
163
150
71
40
32
76
150
142
187
196
184
182
184
175
170
168
160
159
163
112
97
111
46
71
180
206
183
153
159
168
173
173
168
165
163
161
155
152
154
156
157
157
154
148
142
112
111
126
127
132
139
153
157
149
145
151
148
143
140
139
139
140
141
141
142
140
139
139
137
136
136
137
136
137
137
139
140
140
141
144
146
147
145
144
145
145
128
127
127
127
127
126
126
127
126
125
126
128
130
126
125
112
117
188
199
205
213
207
204
204
201
205
205
203
202
198
201
193
195
197
198
178
176
182
178
174
171
167
160
137
63
38
61
155
141
182
197
191
186
176
167
162
169
165
156
160
167
129
75
107
76
36
87
140
151
165
156
166
162
162
158
154
152
149
144
142
143
148
153
154
150
147
143
116
116
126
126
130
140
155
168
157
151
156
148
141
139
137
139
142
143
144
147
143
144
142
140
138
139
136
137
137
136
136
137
139
141
142
144
144
144
146
145
144
130
129
127
129
128
126
126
126
126
125
128
127
127
127
125
119
106
128
196
216
212
209
207
210
203
206
206
206
202
204
204
200
195
198
201
180
184
179
184
178
167
167
160
105
61
59
148
141
180
198
190
186
178
168
162
163
169
155
159
164
171
157
81
96
121
76
86
108
130
147
149
148
147
151
149
143
138
136
128
117
122
134
147
151
149
146
142
116
125
130
124
128
147
158
166
165
158
156
146
140
141
143
145
149
148
148
148
145
145
144
141
142
139
138
139
138
136
135
136
138
138
141
143
144
146
147
145
144
130
129
127
123
130
127
128
126
126
125
126
127
126
126
123
120
115
98
139
223
217
209
209
211
204
207
208
204
201
205
201
200
201
201
186
181
189
183
180
185
175
162
163
121
56
129
149
165
194
183
184
181
175
172
171
178
161
156
168
172
176
177
117
90
127
131
112
110
125
124
128
137
143
147
146
140
134
131
124
126
132
126
138
148
149
151
146
108
129
146
128
124
153
168
168
169
165
158
146
142
146
150
155
156
153
151
150
148
147
147
144
143
142
142
142
141
139
138
138
137
138
140
142
143
145
146
147
146
129
128
128
128
130
128
126
126
126
127
127
127
126
126
125
122
116
102
109
214
230
218
212
212
208
208
206
204
201
204
200
201
199
188
174
186
182
191
187
178
174
163
160
151
163
162
170
194
183
179
181
179
176
176
180
169
159
168
173
174
178
182
162
120
125
129
121
117
120
127
134
138
137
140
141
138
133
130
133
140
112
112
132
142
151
157
147
101
136
164
136
123
157
170
166
164
159
161
147
147
154
159
161
162
159
157
154
154
151
150
148
149
146
146
145
145
143
140
138
140
140
140
139
141
146
147
147
146
128
128
127
129
129
128
127
128
127
127
127
127
126
125
124
121
117
109
95
124
197
228
222
216
210
210
209
205
207
204
200
203
197
171
189
185
189
188
187
177
170
166
151
156
174
170
192
182
181
183
181
182
176
175
165
164
172
174
176
178
177
178
175
158
142
138
134
127
128
129
129
130
130
132
132
127
126
124
128
142
96
106
137
156
172
179
147
105
142
171
141
126
154
165
172
165
156
165
159
163
168
169
166
165
162
161
159
156
156
155
153
152
149
149
148
148
145
144
141
139
141
139
141
141
144
146
150
150
128
126
127
128
129
128
128
128
127
127
127
126
126
124
123
121
118
113
106
88
91
164
224
225
213
210
207
205
210
207
202
204
195
193
194
187
192
188
179
175
172
161
155
179
166
197
195
184
186
183
181
177
175
173
167
176
183
188
185
182
179
176
172
164
155
148
143
141
137
134
129
129
127
128
128
127
124
122
123
133
116
109
139
183
203
207
159
119
157
172
134
133
156
160
165
157
145
168
174
177
180
178
173
169
166
164
161
160
160
158
157
155
154
152
150
150
148
146
144
141
140
139
141
142
143
146
148
149
123
123
123
124
126
124
124
126
126
126
124
124
124
121
119
118
117
114
111
105
91
81
137
211
221
213
210
206
206
207
206
206
197
200
198
192
193
185
180
172
166
156
177
176
183
201
196
191
185
179
174
171
175
172
179
187
190
193
194
192
187
181
176
170
164
162
161
166
168
163
159
155
147
142
141
141
136
132
132
127
118
106
142
170
180
189
173
122
163
173
135
148
152
152
151
147
139
179
190
190
190
187
180
175
172
168
167
166
164
161
160
158
157
155
153
153
150
149
148
145
145
142
141
142
143
147
148
149
120
120
119
121
123
123
123
122
123
122
122
122
120
119
116
115
115
113
110
106
101
89
75
105
206
219
213
213
210
208
205
205
200
202
198
196
189
178
181
182
166
164
183
181
196
196
193
191
185
179
177
181
179
178
193
195
197
196
196
197
194
191
188
186
187
188
194
205
214
211
206
201
196
192
186
175
169
163
156
153
136
124
179
197
198
201
158
99
137
142
145
147
146
148
130
111
99
166
201
196
191
188
184
178
175
173
173
170
166
165
163
161
161
159
156
154
154
151
151
148
147
146
144
143
145
146
147
149
114
113
114
114
116
120
122
119
119
118
117
117
119
115
113
113
111
109
106
102
101
97
88
72
138
223
218
216
211
208
205
206
203
201
199
193
185
174
175
173
164
182
179
198
197
194
192
189
185
179
177
181
182
193
197
197
199
199
199
198
195
194
192
194
196
206
218
208
200
208
213
215
218
220
222
218
214
207
200
198
183
169
188
192
194
195
157
110
134
145
148
139
107
68
49
48
45
121
204
199
194
191
187
182
179
178
176
174
173
172
169
167
165
163
159
160
157
155
154
154
149
147
147
146
146
148
149
150
106
106
109
113
115
113
113
116
114
118
115
115
114
114
112
110
110
108
107
104
101
99
94
82
75
150
219
227
221
213
208
205
203
202
200
190
184
183
175
159
174
182
190
199
193
193
191
187
186
186
187
185
188
197
200
201
201
203
203
199
196
191
189
190
198
201
151
117
119
162
174
187
188
191
194
198
205
216
224
221
195
176
169
167
164
162
137
114
143
148
127
80
56
54
58
56
52
78
191
204
199
193
190
186
183
183
180
180
177
177
173
170
169
166
164
164
162
159
157
155
154
152
151
150
149
150
153
151
112
109
105
107
109
109
109
111
111
113
114
113
112
112
109
107
106
108
108
104
101
99
95
88
78
66
105
190
232
227
217
208
206
200
199
192
188
183
177
168
185
183
199
196
195
195
193
190
189
190
192
184
190
195
197
200
202
203
204
202
199
194
192
190
186
115
57
103
125
143
153
166
172
166
165
163
162
162
162
158
152
154
153
149
146
140
132
143
138
95
58
49
49
47
51
56
57
53
144
208
202
198
195
192
189
188
186
185
184
183
181
179
174
172
171
169
168
165
161
159
159
157
155
154
152
151
153
157
132
128
116
107
104
105
106
108
108
108
110
108
108
107
106
103
103
103
101
100
97
96
94
90
86
76
63
80
137
191
225
219
207
200
196
194
187
179
164
182
182
194
197
192
195
195
193
190
191
191
190
185
194
197
198
204
207
208
208
205
202
200
195
174
130
54
52
85
126
134
138
154
156
160
160
157
155
153
150
146
147
145
144
142
142
142
137
110
63
42
44
43
44
47
51
56
57
52
87
199
205
203
199
197
195
193
191
189
189
188
189
185
183
180
178
173
171
169
167
165
163
161
159
158
155
155
155
156
146
144
136
128
118
112
115
116
116
114
115
112
111
111
112
110
108
107
105
106
104
102
102
100
96
93
88
77
65
72
131
202
217
206
196
189
184
173
173
191
189
199
189
192
193
192
192
192
192
195
191
193
200
198
201
208
210
211
211
209
206
204
189
130
88
53
65
81
136
128
130
142
143
146
149
150
147
147
148
144
142
139
136
136
129
103
67
45
44
47
49
48
50
54
56
56
57
54
53
152
213
206
205
202
200
199
198
197
195
194
193
192
191
188
184
182
178
176
175
171
166
166
164
162
161
161
163
160
154
153
148
145
140
133
131
131
129
128
126
124
123
125
124
123
124
123
123
123
122
120
120
122
121
119
117
113
111
102
90
105
182
216
201
189
183
168
190
187
200
196
186
192
193
194
193
193
196
195
148
170
191
198
198
207
211
212
213
212
211
210
159
100
66
80
113
126
171
112
118
131
135
134
138
141
139
138
136
133
133
132
121
95
61
44
44
48
51
51
51
53
57
61
62
65
64
58
50
80
200
211
208
206
204
203
203
202
201
199
198
197
195
193
191
189
187
183
180
176
173
169
170
168
166
166
165
165
161
159
156
153
150
149
146
144
140
139
138
137
137
138
139
138
140
141
144
144
141
140
140
141
140
140
138
138
138
136
134
126
135
194
209
196
184
188
190
193
205
190
189
194
196
197
196
195
203
138
68
100
138
163
173
187
199
205
212
212
211
202
124
94
52
85
152
163
137
76
99
121
129
130
131
132
132
131
129
126
113
87
58
48
47
50
53
50
48
44
51
60
60
58
52
55
55
51
49
39
122
215
212
210
208
207
208
207
207
205
204
201
200
199
197
194
191
189
186
185
180
175
175
175
170
170
166
165
157
158
160
159
157
156
156
153
150
147
145
143
144
145
145
146
148
150
152
153
152
153
153
153
152
153
151
150
150
150
151
150
145
147
169
185
192
192
184
202
200
191
194
198
200
199
197
200
183
83
77
86
86
101
113
128
148
164
177
191
200
172
102
102
55
48
68
82
68
73
101
116
122
126
127
125
123
115
104
82
53
46
46
48
48
49
50
49
50
51
54
54
53
56
56
53
52
51
49
36
42
153
219
214
212
210
211
210
210
208
206
206
205
202
201
200
198
197
194
193
188
184
180
181
176
176
173
170
150
152
155
159
162
161
161
158
155
152
148
145
144
144
146
147
149
151
154
156
154
154
155
155
155
154
154
153
151
153
155
155
153
152
150
147
184
188
195
202
194
192
195
199
200
200
201
203
127
76
96
102
90
64
68
75
88
97
112
126
136
110
94
105
61
53
46
45
56
78
88
97
103
106
99
90
78
64
49
40
42
46
47
48
49
52
54
59
61
53
53
51
48
48
49
53
56
56
60
54
48
56
161
221
218
214
213
212
211
210
209
208
207
206
205
205
204
202
199
198
194
190
187
186
182
179
177
174
152
152
154
158
162
163
162
161
158
155
153
149
146
144
144
144
146
150
155
155
154
153
154
154
154
154
154
155
153
154
156
157
155
152
147
163
201
193
204
199
192
196
198
200
201
198
204
177
94
118
112
100
97
73
46
40
46
53
65
80
74
55
74
86
66
57
51
45
54
56
58
62
63
61
57
51
45
44
45
47
50
52
54
61
64
65
67
67
63
64
67
72
74
82
87
89
89
86
91
87
79
57
61
149
221
225
219
216
215
213
213
211
210
209
210
209
208
207
205
203
201
197
194
191
188
185
185
182
154
153
156
158
160
161
163
161
160
157
155
151
149
147
147
145
145
147
150
153
154
154
152
154
153
153
154
154
154
154
154
156
154
150
146
188
194
198
205
193
193
196
200
202
202
204
209
137
102
109
124
127
97
83
76
59
44
35
40
44
42
41
47
61
58
49
49
45
50
47
45
48
50
53
51
49
55
56
58
58
60
65
73
77
78
78
77
73
76
81
77
81
84
86
89
89
93
92
90
87
85
79
67
53
113
198
227
225
219
216
215
214
213
212
212
212
211
209
208
207
206
202
200
197
193
191
189
189
155
153
157
161
163
161
160
159
158
158
157
155
152
150
149
148
145
143
143
147
149
148
150
151
153
155
152
152
154
153
153
152
148
137
168
202
191
207
203
193
194
200
203
204
205
209
180
127
134
128
118
119
134
116
99
85
66
56
47
42
41
39
42
43
40
43
46
45
52
56
54
57
60
63
62
62
68
72
73
73
69
70
77
75
72
71
76
78
78
79
81
83
82
85
85
83
86
88
84
81
76
69
59
48
39
59
126
193
224
227
222
217
214
213
213
213
213
212
211
209
209
207
206
203
199
199
196
194
157
155
157
162
163
162
160
159
158
157
156
156
155
153
150
147
145
141
134
130
133
136
139
140
141
138
139
138
139
140
139
134
122
126
200
195
202
208
199
197
199
203
204
204
205
204
115
98
143
162
146
139
141
145
144
152
134
117
99
86
69
62
54
52
53
52
56
63
66
66
64
62
60
62
63
61
62
62
61
59
58
59
62
65
65
64
69
60
60
62
67
66
70
72
76
80
82
81
79
78
74
71
70
66
58
50
37
50
94
147
191
215
222
219
215
215
216
214
213
212
212
211
210
208
205
203
201
198
154
154
156
159
161
161
159
159
159
157
155
155
154
154
152
150
144
139
128
113
101
100
107
108
107
106
109
109
110
108
105
97
78
157
202
191
206
198
198
199
201
202
203
204
208
170
89
94
146
168
163
172
166
145
148
150
158
161
163
161
157
147
134
126
121
113
107
100
92
84
82
76
67
60
54
46
42
38
36
36
40
45
49
55
52
53
56
63
72
74
73
72
76
77
74
80
83
84
84
80
75
75
75
70
58
50
39
31
22
21
37
73
118
171
205
219
223
220
217
214
212
212
212
212
210
206
205
202
153
153
156
157
158
160
160
158
158
157
155
153
152
153
152
151
147
139
128
112
86
61
56
55
57
61
63
66
66
65
57
41
93
205
190
204
206
200
200
200
201
202
203
205
208
128
82
102
160
169
173
190
116
86
73
58
66
77
84
91
107
124
141
145
148
150
153
159
165
170
172
173
171
162
153
152
140
130
115
97
80
63
52
45
39
39
35
39
44
49
53
57
59
64
68
73
72
71
75
69
67
58
54
53
50
50
53
62
73
84
91
99
103
118
142
154
166
194
214
221
218
216
214
213
210
209
208
206
153
153
154
155
159
156
157
158
157
155
155
153
153
151
149
152
151
146
138
127
105
79
54
43
44
42
43
46
45
43
34
47
179
196
196
209
202
200
199
200
202
204
207
214
189
97
85
123
167
170
192
144
43
40
45
45
50
51
46
49
57
56
58
65
77
79
86
86
91
102
110
117
126
139
147
154
152
158
160
165
165
159
151
138
123
114
102
88
76
73
70
68
63
63
62
64
73
80
87
91
96
103
110
122
132
137
145
147
145
144
144
144
145
142
123
86
74
85
113
147
181
206
216
219
216
212
211
209
153
153
155
155
156
156
155
156
157
156
154
153
153
151
147
145
146
148
148
143
133
120
98
80
59
41
41
44
45
39
37
147
204
189
210
203
199
198
200
202
204
208
212
206
144
89
99
148
169
186
168
56
42
41
45
47
51
53
54
54
63
62
63
57
57
63
71
80
81
77
69
64
54
53
57
74
91
99
116
131
133
138
138
139
140
141
143
143
147
152
153
154
154
155
155
154
157
159
159
158
154
152
151
146
142
139
142
144
148
149
149
146
148
137
106
79
82
93
92
85
85
99
126
159
188
207
215
215
153
153
153
154
155
155
156
156
157
155
153
155
153
149
147
143
141
144
147
149
147
140
128
115
95
67
45
40
41
33
116
208
184
209
208
201
200
200
203
205
209
208
189
165
103
85
114
164
181
193
74
39
46
46
48
50
55
55
58
58
59
60
65
64
66
65
64
59
56
53
51
50
49
44
43
40
41
39
43
50
56
64
74
87
100
109
120
134
145
150
153
155
159
160
161
159
153
142
134
134
140
143
143
145
145
148
149
149
148
147
148
149
147
142
116
84
76
94
104
105
99
92
83
78
81
98
129
166
155
154
154
154
155
154
155
156
157
157
155
154
154
149
146
143
141
142
143
145
147
148
145
138
126
108
80
50
31
84
204
181
202
213
203
200
202
203
205
206
193
166
160
129
83
96
148
186
191
91
36
44
48
55
54
54
56
59
59
61
63
67
63
63
57
52
50
50
47
48
47
46
48
49
56
58
52
45
41
39
50
76
96
119
134
139
143
147
148
150
152
151
148
147
148
145
126
114
121
134
144
148
149
150
147
147
147
149
146
145
143
143
143
143
125
94
76
88
102
108
109
103
98
92
87
80
75
93
156
156
154
152
153
152
153
155
156
156
156
153
151
148
146
145
143
144
145
146
144
146
149
148
142
133
119
85
75
191
194
195
215
207
202
203
205
206
201
176
158
164
150
94
89
125
191
190
82
35
44
51
55
55
57
57
59
62
60
64
63
61
53
51
48
47
49
51
48
50
55
51
50
46
44
48
53
69
93
115
131
144
149
147
146
146
145
147
150
151
152
153
154
156
156
145
120
110
124
136
141
146
146
146
146
145
146
146
145
144
142
143
144
145
134
105
79
83
96
104
106
105
102
99
98
96
93
91
159
157
155
152
152
152
153
157
156
156
156
153
150
146
145
146
146
146
148
148
146
146
145
148
149
147
138
117
174
210
195
219
212
204
202
204
205
195
168
158
172
159
129
89
122
181
184
83
37
46
50
54
56
59
60
63
64
65
60
55
51
49
50
51
50
51
52
54
54
54
47
43
50
60
78
102
123
136
142
147
147
147
148
150
152
154
154
156
156
157
156
155
156
157
158
150
131
113
116
133
141
143
145
144
144
144
145
146
146
143
141
141
143
146
142
115
84
75
88
97
100
102
105
106
106
104
99
92
155
154
153
153
152
152
152
154
156
155
153
150
148
145
144
144
143
144
144
144
145
146
145
144
145
147
144
150
210
199
216
214
205
201
203
204
199
187
170
171
150
155
114
134
192
203
77
38
48
51
53
52
55
59
61
59
54
51
51
49
51
51
51
53
53
53
47
44
47
64
73
90
113
130
138
139
139
140
143
148
152
155
157
157
156
155
155
156
154
155
155
155
155
155
154
149
136
119
115
126
134
140
144
143
144
144
144
143
142
140
139
139
141
144
145
125
87
66
77
89
94
98
102
109
111
108
104
100
162
156
150
152
151
151
151
152
154
153
150
147
144
144
143
143
143
143
143
143
143
143
143
143
142
142
140
162
207
209
221
210
201
204
208
207
205
204
195
154
153
156
164
213
200
106
38
48
55
54
57
57
56
53
51
47
45
46
49
52
54
53
55
52
43
45
59
75
97
123
135
137
137
137
140
146
151
156
159
159
158
157
156
154
154
154
153
152
152
154
153
154
153
154
150
150
141
122
113
121
133
138
142
142
142
141
141
141
140
140
140
139
140
142
145
131
93
62
64
79
87
96
101
105
111
116
115
108
201
193
167
151
148
150
150
151
152
150
148
145
143
140
140
143
143
142
142
143
144
144
143
143
142
141
137
145
196
222
221
209
206
210
214
213
212
211
199
184
192
203
201
145
58
38
45
52
54
54
56
51
47
45
45
45
50
51
53
50
46
46
51
65
79
99
125
138
140
136
133
136
142
149
158
167
162
159
157
155
154
153
154
153
152
152
151
151
152
153
154
154
154
153
151
151
143
124
111
114
129
137
139
141
142
140
140
138
138
139
139
139
140
142
144
136
102
60
50
64
77
86
95
105
115
121
118
120
213
213
204
185
160
145
145
148
150
149
146
144
142
140
139
140
140
141
142
143
144
143
143
144
143
143
142
146
204
229
223
210
215
218
218
221
223
223
218
196
159
106
53
31
39
47
51
52
51
50
49
46
45
44
47
49
52
49
44
48
65
87
108
125
138
142
142
138
139
143
150
154
159
159
158
157
157
156
154
153
152
150
151
151
150
149
149
149
151
152
153
154
153
151
150
150
147
128
110
108
122
133
136
139
140
138
136
134
134
134
135
137
136
137
140
138
109
60
41
48
64
82
99
112
118
119
122
131
219
218
215
211
202
177
154
143
144
146
144
143
142
140
140
141
141
143
144
144
145
145
145
145
146
147
149
151
170
214
237
233
232
230
228
221
209
175
119
63
36
37
39
42
49
51
48
45
48
45
46
47
51
52
49
46
43
53
76
109
129
138
138
134
132
139
145
150
156
159
158
156
156
155
153
155
155
152
152
150
150
150
151
151
149
149
147
148
150
151
151
155
153
151
149
149
148
133
112
103
115
127
135
137
137
138
136
134
132
132
132
133
132
133
138
141
127
78
38
36
54
82
100
113
115
116
121
127
214
217
219
218
216
211
198
171
146
141
141
143
142
141
140
141
141
144
144
144
145
144
144
146
149
154
152
116
59
71
124
155
156
140
112
85
60
39
36
44
42
48
52
49
48
50
48
44
47
51
51
53
51
50
52
71
93
120
141
141
136
132
133
140
148
158
159
158
157
155
154
155
154
154
154
154
154
154
151
151
150
149
149
148
148
148
149
148
147
150
150
153
153
152
150
149
149
141
116
101
108
122
128
133
135
137
134
132
128
128
127
126
129
132
139
147
147
108
68
67
75
92
99
109
114
115
116
123
158
176
208
220
219
218
216
209
190
163
143
140
141
141
141
143
144
144
146
146
146
145
147
151
156
138
87
46
41
40
36
37
35
37
39
45
44
43
45
54
53
50
52
46
45
48
51
56
55
52
50
55
63
82
108
131
142
141
137
136
139
148
157
160
161
159
158
156
155
154
154
152
152
153
153
153
153
153
151
149
151
150
148
148
148
148
148
147
146
149
149
150
150
150
150
148
147
143
122
102
101
115
126
130
132
133
131
127
127
123
124
125
130
136
146
154
157
139
165
183
167
169
154
118
107
111
115
124
102
108
144
189
215
221
221
218
215
209
189
160
144
140
141
144
144
145
147
147
149
150
156
154
115
59
40
44
48
47
46
46
49
49
52
54
50
48
49
53
52
51
50
48
49
54
56
60
48
50
66
90
113
131
138
135
133
139
148
156
161
163
164
160
159
157
158
156
153
153
152
152
152
152
151
151
151
152
153
150
150
150
149
148
145
147
148
148
148
147
148
149
149
149
147
145
145
142
126
106
96
109
122
126
128
129
125
122
121
121
129
133
133
137
146
145
146
176
203
203
204
214
188
121
101
106
118
135
108
106
102
118
159
200
219
222
221
220
217
206
182
150
136
139
143
146
149
150
152
158
135
82
45
38
43
46
50
53
52
51
56
52
49
52
53
52
53
47
42
50
59
55
52
45
43
56
74
103
125
133
131
126
128
139
152
162
166
165
163
160
159
158
157
154
154
153
152
151
151
151
151
151
150
149
149
150
150
150
147
148
148
147
145
146
145
145
146
145
145
145
146
144
142
141
142
140
129
105
91
97
113
122
127
125
122
134
158
175
185
190
175
144
139
133
138
165
169
167
195
198
144
92
95
107
125
135
117
116
111
106
104
126
174
211
223
224
222
220
214
199
168
143
141
147
150
156
153
113
60
39
38
42
46
52
55
55
55
53
52
55
51
50
51
48
48
45
50
52
55
51
47
50
77
115
141
149
141
128
128
135
147
154
158
162
164
162
162
159
157
157
155
153
153
152
150
150
152
151
151
150
149
147
147
147
148
149
148
146
146
147
145
145
145
144
145
146
144
143
143
142
140
139
138
137
130
107
99
110
119
124
131
127
142
183
211
217
216
215
206
167
134
139
150
168
180
193
191
143
86
82
100
116
123
119
121
119
117
112
108
105
107
141
193
218
224
224
221
219
214
191
159
150
158
144
88
43
51
47
44
48
52
54
54
56
53
50
46
50
49
44
44
45
46
47
47
49
53
64
92
124
145
151
148
144
143
149
159
162
158
151
152
157
163
161
161
159
158
157
156
153
153
152
153
152
151
151
151
151
148
147
146
148
148
148
147
144
145
146
146
145
144
144
145
144
143
142
141
139
138
137
134
132
127
111
116
131
131
132
136
144
176
202
215
215
208
206
202
183
172
186
203
211
214
212
170
92
74
85
104
109
105
97
121
120
120
117
115
112
109
105
117
158
201
220
225
225
222
220
213
190
130
69
41
39
45
46
54
56
54
53
55
54
48
48
46
46
43
45
48
53
51
48
57
70
93
126
147
150
146
144
146
155
163
168
168
166
163
154
150
153
159
160
160
158
157
155
156
153
152
151
158
155
149
149
149
148
148
145
144
145
146
146
145
144
143
143
142
142
141
142
141
141
139
137
135
134
133
131
127
123
120
103
97
101
107
119
128
157
193
202
206
209
207
206
207
210
216
219
221
217
209
178
102
61
69
86
91
93
93
88
121
121
121
119
118
117
116
114
106
100
123
168
210
227
227
229
231
161
56
42
43
41
47
52
58
55
55
54
57
51
50
47
46
49
48
50
51
51
49
72
98
129
150
153
147
144
149
158
163
166
167
167
166
166
165
159
150
151
157
164
162
159
156
155
155
156
153
153
152
152
150
150
148
146
147
144
144
144
144
145
143
143
141
140
140
136
136
134
133
132
130
126
124
123
121
118
115
117
120
107
84
93
126
157
177
193
207
212
212
215
216
218
218
218
218
214
202
183
154
91
52
58
75
80
80
90
97
79
124
123
121
121
121
119
122
118
114
109
102
105
138
192
226
231
166
58
41
44
44
49
55
53
54
55
53
49
54
54
50
44
49
54
52
53
58
57
72
117
148
154
149
146
148
156
162
165
164
165
166
164
164
165
165
163
152
150
155
163
165
161
156
155
155
154
153
154
153
151
150
149
147
146
145
144
142
140
141
140
139
137
135
132
132
129
129
128
129
129
128
123
122
124
130
141
159
178
187
183
175
185
201
209
215
215
215
217
218
217
216
214
209
204
195
178
151
120
82
55
56
71
74
74
86
98
89
76
121
122
121
122
122
121
122
121
118
114
110
109
110
127
147
117
48
40
44
44
49
55
54
53
50
48
47
53
52
52
49
51
52
51
46
59
80
113
142
151
149
145
148
154
160
162
163
163
165
165
165
163
164
164
164
164
154
148
153
162
166
162
158
157
156
155
153
153
154
153
151
148
146
145
145
143
141
139
136
132
131
134
138
145
151
155
158
163
169
175
180
182
184
192
202
208
214
217
215
210
209
211
213
213
214
214
214
215
215
212
203
185
168
155
140
124
105
77
60
63
70
70
76
91
99
93
83
87
122
122
121
121
124
123
123
122
122
120
114
117
122
94
47
34
40
45
45
48
54
54
55
48
44
49
56
53
48
52
55
56
44
33
52
95
133
152
152
146
147
153
158
160
162
161
161
162
165
166
164
163
164
163
162
163
157
151
153
158
163
163
160
159
157
155
153
154
152
152
149
147
144
144
142
139
136
133
132
141
155
168
178
184
189
192
193
197
202
208
213
217
218
220
222
222
220
214
208
205
205
210
213
213
214
213
212
211
202
183
155
131
121
113
112
102
81
62
70
75
68
76
99
106
91
76
84
90
122
123
122
121
122
121
121
122
123
123
122
124
90
47
40
43
43
46
52
53
53
52
48
44
52
57
48
49
55
58
53
49
44
72
120
148
152
147
147
152
158
159
160
159
159
160
160
161
162
162
163
163
164
164
162
162
159
150
150
155
158
158
157
156
155
154
153
153
150
148
147
144
141
138
136
131
130
142
164
182
191
194
196
196
197
198
202
207
211
214
216
217
219
219
217
216
213
209
206
206
210
212
213
213
212
210
202
180
147
124
118
116
114
108
102
86
77
80
81
72
78
98
110
96
77
71
79
84
124
125
123
122
123
121
121
122
125
129
130
91
44
41
44
46
48
50
54
53
50
44
47
56
54
48
48
56
51
46
47
65
107
145
155
149
145
149
157
160
161
160
158
159
159
160
160
161
162
162
163
163
162
163
162
161
160
150
146
150
155
155
154
155
153
153
153
151
149
146
143
142
138
134
129
138
160
182
194
198
197
197
196
196
199
204
208
211
212
212
213
214
215
215
212
211
211
209
209
208
208
210
207
201
192
173
140
109
96
100
107
108
108
99
92
89
93
82
73
82
100
106
92
77
75
73
79
89
125
124
123
122
125
127
124
125
130
131
93
48
42
46
47
49
54
52
51
47
45
49
57
52
46
51
53
51
43
48
89
134
155
152
147
148
154
159
161
161
161
158
157
157
159
159
159
159
160
161
162
162
162
162
163
162
161
153
145
146
151
156
155
153
153
154
152
148
147
142
141
139
134
134
152
177
192
196
196
195
194
196
198
202
207
209
210
210
210
211
211
213
215
213
211
212
211
209
209
208
206
206
191
162
123
91
87
90
91
94
98
98
96
93
96
97
85
80
90
105
103
90
77
66
70
78
98
113
125
124
123
124
125
128
126
130
131
89
47
44
44
48
53
53
54
54
47
44
49
53
49
48
53
54
50
39
62
110
146
153
147
145
151
157
161
161
161
159
159
156
156
156
156
158
158
158
158
158
160
160
161
161
162
163
161
156
146
147
148
153
154
154
153
152
150
148
145
139
137
131
138
165
186
195
195
194
193
194
195
200
205
207
208
208
208
209
210
211
212
214
215
212
213
213
211
207
208
208
196
156
110
81
73
82
93
92
92
94
98
99
97
99
92
76
76
96
107
99
84
73
65
65
79
101
122
128
122
123
124
124
127
130
134
133
93
46
42
45
46
51
54
53
56
50
44
53
55
46
46
51
55
53
52
79
126
151
149
143
148
157
161
161
160
160
159
159
158
156
156
156
156
157
157
158
159
159
159
160
160
161
161
162
162
160
149
145
146
151
154
155
153
151
148
146
142
137
133
139
171
190
196
195
193
193
194
196
202
206
208
208
207
207
208
208
209
212
215
217
214
212
215
215
211
207
201
197
163
72
43
67
89
91
93
99
103
107
108
107
100
88
79
82
99
104
96
82
76
75
76
93
108
121
127
126
125
124
124
126
130
136
135
91
47
42
46
50
53
55
54
53
47
49
55
54
47
48
54
55
60
63
95
139
151
144
142
150
160
161
160
160
159
159
161
160
158
158
157
156
156
155
157
157
157
158
158
159
161
162
160
160
160
160
151
144
144
149
155
156
155
152
149
145
139
135
138
170
193
196
194
193
193
193
198
203
205
207
207
206
207
209
209
209
210
212
215
216
212
213
215
212
209
203
191
159
86
47
76
93
93
95
101
109
114
114
112
102
85
78
91
103
100
91
86
80
78
87
100
112
120
121
113
101
126
126
126
127
134
136
92
45
43
46
51
55
55
52
53
46
44
53
53
49
47
59
65
68
71
107
145
149
140
142
154
160
160
159
158
158
158
158
159
159
159
158
157
156
155
154
156
155
155
157
158
159
160
160
160
159
160
158
153
143
143
149
154
157
155
151
146
141
138
137
161
191
198
196
194
193
194
198
206
208
205
207
207
206
207
208
209
209
211
213
214
211
210
212
212
209
204
187
165
84
47
78
93
91
94
103
110
115
112
102
98
89
91
103
105
99
94
91
84
84
93
108
114
118
115
106
93
69
126
126
126
130
134
95
55
45
51
55
58
59
57
51
49
47
51
52
48
49
56
69
73
87
119
143
145
138
143
158
162
159
159
158
158
158
157
158
158
158
159
158
157
156
155
155
155
157
156
157
158
159
159
159
159
158
158
157
154
145
143
147
151
154
152
147
143
139
133
148
181
196
197
196
195
195
198
206
209
207
206
208
208
209
208
208
210
211
212
214
213
208
210
212
208
207
195
154
96
48
70
82
86
92
101
111
110
102
95
93
92
93
103
104
99
95
92
91
93
101
111
111
109
109
102
87
69
53
123
124
130
132
94
51
46
46
51
57
55
56
55
48
50
54
49
46
51
62
74
70
83
122
145
145
137
145
159
164
161
158
158
157
156
158
157
158
158
157
157
156
156
155
154
155
154
155
155
156
156
157
157
158
159
158
157
156
153
147
142
142
146
150
147
144
139
133
135
166
190
194
193
194
194
197
204
208
206
204
207
210
210
209
208
210
212
212
213
213
209
206
211
210
206
206
171
82
45
52
75
79
87
102
113
105
93
90
91
97
101
105
103
95
90
90
96
100
105
111
105
98
98
92
78
65
53
46
117
120
130
100
50
47
44
47
52
54
53
52
46
50
52
47
45
49
63
67
61
77
125
147
150
144
148
160
162
160
160
159
157
156
156
156
155
157
157
158
157
157
156
155
154
154
154
155
156
155
156
156
157
157
158
158
156
155
153
151
143
142
143
149
147
141
134
128
149
180
191
191
191
191
195
202
208
209
206
205
207
210
210
210
211
212
213
213
213
211
207
207
210
209
206
199
124
41
45
64
77
89
102
112
104
90
89
96
102
106
104
100
96
90
91
101
102
100
98
94
90
87
75
69
62
56
51
52
120
126
103
57
45
50
45
50
51
51
49
48
44
48
48
46
48
62
57
38
69
129
152
148
142
154
163
162
160
159
159
158
157
156
155
154
155
156
158
159
158
157
156
155
154
154
154
155
155
154
154
154
155
156
157
156
155
154
154
154
146
141
141
143
145
140
133
132
164
186
190
189
189
191
197
205
208
208
207
207
209
210
209
210
211
211
212
213
213
210
205
207
210
208
206
178
71
39
59
77
85
95
99
99
94
95
100
104
104
102
99
95
95
95
96
96
94
88
77
79
78
68
64
62
58
57
58
69
162
128
56
45
47
47
49
50
51
49
46
46
46
46
45
48
53
47
33
72
135
150
145
142
155
165
164
161
158
157
157
157
155
154
154
154
154
155
157
156
156
156
155
153
154
153
153
153
153
153
152
153
153
153
154
154
154
152
152
151
147
139
136
137
140
138
130
142
174
188
189
189
190
194
201
205
203
204
207
208
208
208
207
210
211
211
212
212
212
209
204
208
210
207
206
143
43
49
78
84
86
88
88
89
96
103
102
99
102
98
90
89
91
97
95
85
73
64
58
65
62
67
68
61
54
52
69
91
159
98
43
49
47
51
54
55
53
48
46
47
47
46
48
53
41
31
90
155
163
151
142
157
164
163
164
162
159
158
158
158
157
155
154
153
155
157
157
157
157
157
155
153
153
154
153
152
151
152
152
152
152
152
151
151
151
150
150
151
150
138
133
133
136
135
132
160
185
189
188
190
191
198
203
203
202
204
207
207
207
207
209
211
212
212
212
213
212
208
205
209
210
206
197
101
41
64
80
86
87
85
92
98
103
103
102
104
99
88
83
91
96
92
77
62
55
53
53
59
66
65
60
52
51
63
88
103
